Date,Open,High,Low,Close,Volume,Adj Close
2013-12-31,6.50,6.95,6.50,6.75,29900,6.75
2013-12-30,6.65,6.90,6.50,6.65,23800,6.65
2013-12-27,6.50,6.85,6.30,6.75,58500,6.75
2013-12-26,6.05,6.50,6.05,6.40,22700,6.40
2013-12-25,6.05,6.05,6.05,6.05,000,6.05
2013-12-24,5.70,6.10,5.70,6.05,12900,6.05
2013-12-23,6.10,6.10,5.65,5.70,10500,5.70
2013-12-20,5.75,5.85,5.60,5.65,8300,5.65
2013-12-19,5.80,5.90,5.60,5.85,2000,5.85
2013-12-18,6.00,6.00,5.45,5.80,31700,5.80
2013-12-17,5.90,6.15,5.70,5.95,4500,5.95
2013-12-16,6.00,6.15,5.90,6.00,2900,6.00
2013-12-13,5.95,6.10,5.90,5.90,9100,5.90
2013-12-12,6.00,6.15,5.90,5.95,1400,5.95
2013-12-11,6.05,6.15,5.90,6.10,13200,6.10
2013-12-10,6.10,6.20,5.95,6.10,15100,6.10
2013-12-09,6.10,6.25,5.90,6.20,13300,6.20
2013-12-06,6.15,6.35,6.05,6.20,8200,6.20
2013-12-05,6.10,6.35,5.95,6.20,15400,6.20
2013-12-04,6.20,6.30,6.15,6.30,3500,6.30
2013-12-03,6.10,6.35,5.60,6.15,8100,6.15
2013-12-02,6.30,6.50,6.10,6.20,17500,6.20
2013-11-29,6.10,6.45,6.10,6.45,7200,6.45
2013-11-28,6.20,6.40,6.20,6.35,8600,6.35
2013-11-27,6.15,6.40,6.15,6.15,4200,6.15
2013-11-26,6.65,6.65,6.25,6.35,7300,6.35
2013-11-25,6.20,6.45,6.10,6.25,3600,6.25
2013-11-22,6.55,6.55,6.25,6.30,2400,6.30
2013-11-21,6.05,6.60,6.05,6.45,6000,6.45
2013-11-20,6.45,6.55,6.35,6.45,6200,6.45
2013-11-19,6.60,6.60,6.35,6.35,12000,6.35
2013-11-18,6.10,6.30,5.90,6.20,12100,6.20
2013-11-15,6.05,6.05,6.05,6.05,000,6.05
2013-11-14,6.15,6.35,5.90,6.05,18000,6.05
2013-11-13,6.25,6.40,6.05,6.05,8200,6.05
2013-11-12,6.20,6.50,6.05,6.40,12900,6.40
2013-11-11,6.75,6.75,6.20,6.20,18400,6.20
2013-11-08,6.10,6.55,6.05,6.45,25200,6.45
2013-11-07,6.85,6.85,6.15,6.15,22000,6.15
2013-11-06,6.40,6.90,6.15,6.75,49700,6.75
2013-11-05,5.85,6.50,5.80,6.35,14300,6.35
2013-11-04,6.00,6.00,6.00,6.00,000,6.00
2013-11-01,6.10,6.10,5.85,6.00,9600,6.00
2013-10-31,6.10,6.20,6.00,6.00,4500,6.00
2013-10-30,6.15,6.55,6.05,6.25,17100,6.25
2013-10-29,5.90,6.15,5.85,6.00,5500,6.00
2013-10-28,6.50,6.50,5.85,5.95,7300,5.95
2013-10-25,6.00,6.20,5.95,5.95,13400,5.95
2013-10-24,6.10,6.15,5.85,5.90,14000,5.90
2013-10-23,5.80,6.20,5.80,6.00,6500,6.00
2013-10-22,5.95,6.00,5.75,6.00,12800,6.00
2013-10-21,6.05,6.05,5.70,5.75,5000,5.75
2013-10-18,5.65,6.00,5.60,5.65,15200,5.65
2013-10-17,5.70,5.90,5.70,5.85,4300,5.85
2013-10-16,6.00,6.00,6.00,6.00,000,6.00
2013-10-15,5.85,6.00,5.80,6.00,4600,6.00
2013-10-14,5.90,6.05,5.90,5.95,3100,5.95
2013-10-11,6.10,6.30,6.00,6.05,12300,6.05
2013-10-10,6.25,6.25,6.00,6.15,21500,6.15
2013-10-09,5.70,6.35,5.70,6.20,4200,6.20
2013-10-08,6.00,6.10,5.95,6.05,3800,6.05
2013-10-07,5.80,6.30,5.80,6.15,5600,6.15
2013-10-04,6.00,6.35,5.90,6.05,21400,6.05
2013-10-03,5.60,6.05,5.55,6.05,46800,6.05
2013-10-02,5.50,5.50,5.50,5.50,000,5.50
2013-10-01,5.25,5.65,5.00,5.50,9900,5.50
2013-09-30,5.00,5.60,5.00,5.30,6100,5.30
2013-09-27,5.70,5.90,5.30,5.30,12200,5.30
2013-09-26,5.65,5.65,5.30,5.45,4200,5.45
2013-09-25,5.15,5.40,5.15,5.30,5700,5.30
2013-09-24,5.10,5.65,5.05,5.25,4500,5.25
2013-09-23,5.60,5.60,5.25,5.25,7700,5.25
2013-09-20,6.00,6.30,5.50,5.60,10500,5.60
2013-09-19,6.00,6.45,5.80,6.00,13300,6.00
2013-09-18,5.50,6.05,5.50,6.00,28600,6.00
2013-09-17,5.50,5.95,5.50,5.65,17500,5.65
2013-09-16,7.20,7.20,6.10,6.10,23900,6.10
2013-09-13,6.00,6.90,5.85,6.75,88900,6.75
2013-09-12,4.75,5.85,4.75,5.85,93700,5.85
2013-09-11,4.60,4.90,4.45,4.90,12100,4.90
2013-09-10,4.95,4.95,4.70,4.70,9300,4.70
2013-09-09,4.80,4.80,4.80,4.80,000,4.80
2013-09-06,4.65,4.85,4.65,4.80,6800,4.80
2013-09-05,4.65,4.65,4.50,4.65,6500,4.65
2013-09-04,4.50,4.65,4.30,4.50,8400,4.50
2013-09-03,4.50,4.70,4.50,4.65,4500,4.65
2013-09-02,4.50,4.70,4.45,4.50,14000,4.50
2013-08-30,4.80,4.95,4.35,4.50,33300,4.50
2013-08-29,4.50,4.80,4.30,4.75,6800,4.75
2013-08-28,4.30,4.80,4.00,4.70,8100,4.70
2013-08-27,4.50,4.90,4.20,4.40,24700,4.40
2013-08-26,4.95,4.95,4.55,4.70,2500,4.70
2013-08-23,4.60,4.90,4.50,4.80,6500,4.80
2013-08-22,4.80,4.80,4.50,4.60,7600,4.60
2013-08-21,4.40,4.80,4.35,4.75,6300,4.75
2013-08-20,4.30,4.80,4.30,4.55,4700,4.55
2013-08-19,4.60,4.90,4.35,4.40,7700,4.40
2013-08-16,4.65,5.30,4.60,4.65,15200,4.65
2013-08-15,4.70,4.70,4.70,4.70,000,4.70
2013-08-14,5.00,5.10,4.65,4.70,7300,4.70
2013-08-13,5.25,5.25,4.65,4.80,14700,4.80
2013-08-12,4.45,5.00,4.45,4.70,9000,4.70
2013-08-09,4.50,4.50,4.50,4.50,000,4.50
2013-08-08,4.50,4.70,4.30,4.50,4800,4.50
2013-08-07,4.75,5.15,4.30,4.70,24100,4.70
2013-08-06,4.70,4.75,4.20,4.40,12100,4.40
2013-08-05,5.10,5.10,4.65,4.75,7600,4.75
2013-08-02,5.00,5.30,4.60,5.25,35300,5.25
2013-08-01,4.00,4.85,4.00,4.70,14400,4.70
2013-07-31,4.00,4.45,3.85,4.05,21300,4.05
2013-07-30,4.20,4.45,4.15,4.25,8600,4.25
2013-07-29,4.70,4.70,4.25,4.25,7400,4.25
2013-07-26,4.95,4.95,4.55,4.75,12400,4.75
2013-07-25,4.45,4.95,4.10,4.85,7900,4.85
2013-07-24,5.45,5.45,4.45,4.50,42800,4.50
2013-07-23,5.40,5.45,4.80,4.90,18600,4.90
2013-07-22,5.20,5.35,5.00,5.05,7400,5.05
2013-07-19,5.50,5.50,5.30,5.30,10500,5.30
2013-07-18,5.25,5.50,5.25,5.50,9300,5.50
2013-07-17,5.40,5.40,5.20,5.35,6100,5.35
2013-07-16,5.35,5.40,5.10,5.35,2000,5.35
2013-07-15,5.20,5.45,5.20,5.35,10600,5.35
2013-07-12,5.50,5.50,5.20,5.35,5400,5.35
2013-07-11,5.35,5.45,5.35,5.40,5200,5.40
2013-07-10,5.50,5.50,5.30,5.35,7600,5.35
2013-07-09,5.90,5.90,5.20,5.30,10900,5.30
2013-07-08,5.70,5.70,5.30,5.45,4200,5.45
2013-07-05,5.30,5.50,5.30,5.45,8500,5.45
2013-07-04,5.55,5.65,5.25,5.30,8100,5.30
2013-07-03,5.60,5.75,5.60,5.60,3400,5.60
2013-07-02,5.50,5.80,5.50,5.75,8000,5.75
2013-07-01,5.05,5.95,5.05,5.75,20900,5.75
2013-06-28,5.20,5.40,5.05,5.20,8000,5.20
2013-06-27,5.45,5.45,5.15,5.30,3000,5.30
2013-06-26,5.25,5.65,5.25,5.30,8400,5.30
2013-06-25,5.25,6.00,5.25,5.60,8400,5.60
2013-06-24,6.00,6.00,5.30,5.40,17400,5.40
2013-06-21,6.20,6.20,5.75,6.10,2700,6.10
2013-06-20,6.25,6.60,5.65,6.35,16100,6.35
2013-06-19,6.95,6.95,6.25,6.40,4700,6.40
2013-06-18,7.00,7.00,6.10,6.40,8900,6.40
2013-06-17,6.50,6.75,6.10,6.30,4800,6.30
2013-06-14,6.00,6.80,5.80,6.20,3300,6.20
2013-06-13,6.30,6.85,6.20,6.20,5700,6.20
2013-06-12,6.30,6.95,6.25,6.50,2300,6.50
2013-06-11,6.75,6.80,6.45,6.55,5700,6.55
2013-06-10,6.70,7.15,6.70,6.90,9800,6.90
2013-06-07,7.15,7.20,6.55,6.85,26700,6.85
2013-06-06,6.40,7.10,6.20,6.80,3300,6.80
2013-06-05,6.70,6.75,6.20,6.55,1400,6.55
2013-06-04,6.80,6.85,6.70,6.75,3800,6.75
2013-06-03,6.70,6.85,6.65,6.75,9300,6.75
2013-05-31,6.85,7.05,6.85,6.85,7100,6.85
2013-05-30,7.00,7.30,6.60,6.90,15400,6.90
2013-05-29,7.10,7.10,7.00,7.00,400,7.00
2013-05-28,6.65,7.55,6.65,7.05,5900,7.05
2013-05-27,7.15,7.40,7.10,7.20,7800,7.20
2013-05-24,7.00,7.40,7.00,7.30,7800,7.30
2013-05-23,7.60,7.60,7.05,7.15,2400,7.15
2013-05-22,7.30,7.40,7.20,7.20,7900,7.20
2013-05-21,7.55,7.70,7.35,7.40,50400,7.40
2013-05-20,7.40,7.70,7.40,7.70,1100,7.70
2013-05-17,7.30,7.55,7.30,7.50,3400,7.50
2013-05-16,7.45,7.50,7.30,7.40,15800,7.40
2013-05-15,7.65,7.70,7.55,7.55,14500,7.55
2013-05-14,7.50,7.70,7.50,7.65,34400,7.65
2013-05-13,7.45,7.65,7.45,7.65,9100,7.65
2013-05-10,7.45,7.70,7.45,7.55,12300,7.55
2013-05-09,7.55,7.70,7.55,7.60,14700,7.60
2013-05-08,7.45,7.70,7.45,7.65,13200,7.65
2013-05-07,7.80,7.80,7.50,7.60,12400,7.60
2013-05-06,7.40,7.70,7.40,7.65,18000,7.65
2013-05-03,7.45,7.70,7.25,7.70,14100,7.70
2013-05-02,7.80,7.80,7.40,7.55,6900,7.55
2013-05-01,7.50,7.50,7.50,7.50,000,7.50
2013-04-30,7.40,7.70,7.25,7.50,5200,7.50
2013-04-29,7.70,7.70,7.40,7.60,7700,7.60
2013-04-26,7.70,7.70,7.60,7.65,8400,7.65
2013-04-25,7.60,7.85,7.60,7.60,6700,7.60
2013-04-24,7.70,7.70,7.70,7.70,000,7.70
2013-04-23,7.65,7.80,7.50,7.70,21300,7.70
2013-04-22,8.00,8.10,7.50,7.60,19100,7.60
2013-04-19,8.05,8.05,8.05,8.05,000,8.05
2013-04-18,8.05,8.05,7.90,8.05,2400,8.05
2013-04-17,7.60,8.25,7.20,8.20,18600,8.20
2013-04-16,7.70,7.95,7.60,7.65,8400,7.65
2013-04-15,7.65,7.90,7.65,7.75,5200,7.75
2013-04-12,8.00,8.00,7.55,7.65,6200,7.65
2013-04-11,7.80,7.95,7.65,7.80,8300,7.80
2013-04-10,7.90,7.90,7.55,7.85,5200,7.85
2013-04-09,7.60,8.15,7.35,7.85,22200,7.85
2013-04-08,7.70,8.00,7.50,7.85,7500,7.85
2013-04-05,7.65,7.95,7.60,7.70,17400,7.70
2013-04-04,8.00,8.40,7.50,7.50,18200,7.50
2013-04-03,8.25,8.60,8.10,8.25,17300,8.25
2013-04-02,7.80,8.50,7.80,8.30,11900,8.30
2013-04-01,7.55,8.25,7.55,7.70,35300,7.70
2013-03-29,7.45,7.45,7.45,7.45,000,7.45
2013-03-28,7.45,7.60,7.20,7.45,27200,7.45
2013-03-27,7.45,7.45,7.45,7.45,000,7.45
2013-03-26,7.25,7.80,7.20,7.45,37100,7.45
2013-03-25,7.90,8.00,7.30,7.45,47700,7.45
2013-03-22,7.60,7.90,7.40,7.45,20800,7.45
2013-03-21,7.60,8.15,7.35,7.95,11900,7.95
2013-03-20,7.70,7.95,7.50,7.60,11800,7.60
2013-03-19,8.35,8.35,7.50,7.95,11800,7.95
2013-03-18,8.05,8.35,7.85,8.15,8300,8.15
2013-03-15,8.30,8.50,8.00,8.20,55300,8.20
2013-03-14,8.30,8.55,8.20,8.30,8600,8.30
2013-03-13,8.25,8.70,8.20,8.40,14000,8.40
2013-03-12,8.20,8.60,8.20,8.45,9200,8.45
2013-03-11,8.45,8.50,8.15,8.20,25200,8.20
2013-03-08,8.35,8.80,8.20,8.50,30200,8.50
2013-03-07,8.55,9.00,8.40,8.50,19600,8.50
2013-03-06,8.55,9.00,8.50,8.60,90400,8.60
2013-03-05,8.05,9.25,8.05,8.55,24200,8.55
2013-03-04,8.35,8.65,8.05,8.20,26300,8.20
2013-03-01,8.75,8.90,8.20,8.40,17100,8.40
2013-02-28,9.00,9.25,8.75,8.95,12200,8.95
2013-02-27,8.90,9.35,8.70,8.85,39200,8.85
2013-02-26,10.20,10.20,8.60,8.80,70200,8.80
2013-02-25,10.30,10.60,9.70,9.80,23200,9.80
2013-02-22,10.40,10.65,10.00,10.45,17200,10.45
2013-02-21,10.00,10.25,9.95,10.10,9100,10.10
2013-02-20,9.85,10.30,9.85,10.05,13000,10.05
2013-02-19,10.00,10.30,9.75,9.80,23800,9.80
2013-02-18,10.25,10.85,10.00,10.10,15300,10.10
2013-02-15,10.45,10.45,9.85,10.00,9000,10.00
2013-02-14,10.45,10.45,10.05,10.30,6900,10.30
2013-02-13,10.45,10.90,10.25,10.30,11600,10.30
2013-02-12,10.50,11.40,10.30,10.55,20600,10.55
2013-02-11,10.55,11.00,10.50,10.70,5200,10.70
2013-02-08,11.05,11.20,10.50,10.50,17500,10.50
2013-02-07,11.10,11.40,11.00,11.05,12300,11.05
2013-02-06,11.85,11.85,11.00,11.05,11200,11.05
2013-02-05,11.50,11.60,11.10,11.15,12300,11.15
2013-02-04,12.00,12.10,11.50,11.75,5700,11.75
2013-02-01,12.25,12.50,11.75,12.15,30000,12.15
2013-01-31,11.45,12.00,11.20,11.85,34600,11.85
2013-01-30,11.25,11.40,10.80,11.05,15700,11.05
2013-01-29,11.40,11.85,9.85,10.80,33800,10.80
2013-01-28,11.20,11.75,11.15,11.60,12800,11.60
2013-01-25,11.05,11.40,10.95,11.20,22800,11.20
2013-01-24,12.00,12.10,11.05,11.15,31100,11.15
2013-01-23,12.10,12.35,11.80,12.05,26100,12.05
2013-01-22,12.45,12.60,12.00,12.15,19900,12.15
2013-01-21,12.55,12.80,12.25,12.40,17100,12.40
2013-01-18,12.60,12.80,12.40,12.65,32600,12.65
2013-01-17,13.30,13.30,12.45,12.55,32400,12.55
2013-01-16,13.20,13.30,12.60,12.70,26200,12.70
2013-01-15,13.20,13.65,13.15,13.25,12100,13.25
2013-01-14,13.40,13.65,13.10,13.25,23800,13.25
2013-01-11,13.80,13.85,13.25,13.30,19600,13.30
2013-01-10,13.40,13.90,13.20,13.65,13200,13.65
2013-01-09,13.95,14.15,13.60,13.65,21400,13.65
2013-01-08,14.00,14.00,13.60,13.65,20800,13.65
2013-01-07,14.40,14.50,13.55,14.10,69600,14.10
2013-01-04,13.70,14.55,13.50,14.40,106900,14.40
2013-01-03,13.50,13.95,13.10,13.65,49000,13.65
2013-01-02,13.90,14.25,13.30,13.45,57800,13.45
2013-01-01,14.35,14.35,13.70,13.90,27400,13.90
2012-12-31,13.75,14.40,12.25,13.95,154100,13.95
2012-12-28,14.05,14.30,13.55,13.70,24200,13.70
2012-12-27,14.60,14.90,13.90,14.00,39100,14.00
2012-12-26,13.70,14.60,13.70,14.40,89500,14.40
2012-12-25,13.75,13.75,13.75,13.75,000,13.75
2012-12-24,13.95,14.35,13.70,13.75,16200,13.75
2012-12-21,14.40,14.50,13.75,13.90,38500,13.90
2012-12-20,14.50,14.80,14.25,14.40,25700,14.40
2012-12-19,15.05,15.20,14.55,14.65,54100,14.65
2012-12-18,14.70,14.95,14.50,14.75,66700,14.75
2012-12-17,15.90,15.90,14.50,14.65,180600,14.65
2012-12-14,14.80,17.40,14.60,15.70,945700,15.70
2012-12-13,15.25,16.20,14.85,14.95,34900,14.95
2012-12-12,15.70,16.10,15.10,15.25,39000,15.25
2012-12-11,15.90,16.50,15.50,15.65,78000,15.65
2012-12-10,16.00,16.40,15.60,15.80,64700,15.80
2012-12-07,16.80,17.00,15.75,15.90,162800,15.90
2012-12-06,15.50,16.95,15.50,16.80,265700,16.80
2012-12-05,16.10,16.65,15.75,16.35,217300,16.35
2012-12-04,15.00,17.10,14.80,16.00,1261600,16.00
2012-12-03,15.45,15.50,14.25,14.25,68200,14.25
2012-11-30,15.00,15.00,14.25,14.35,88200,14.35
2012-11-29,15.10,15.75,14.80,15.00,113000,15.00
2012-11-28,14.95,14.95,14.95,14.95,000,14.95
2012-11-27,16.25,16.25,14.70,14.95,173700,14.95
2012-11-26,15.00,16.50,15.00,16.35,615300,16.35
2012-11-23,15.65,16.45,13.80,14.95,827700,14.95
2012-11-22,12.60,15.30,12.60,15.15,1189500,15.15
2012-11-21,12.10,13.00,12.05,12.75,51900,12.75
2012-11-20,12.35,12.70,12.00,12.15,75700,12.15
2012-11-19,12.20,12.70,12.05,12.10,69200,12.10
2012-11-16,12.80,12.90,12.15,12.45,12700,12.45
2012-11-15,12.00,13.00,11.95,12.80,64300,12.80
2012-11-14,12.20,12.20,12.20,12.20,000,12.20
2012-11-13,12.20,12.20,12.20,12.20,000,12.20
2012-11-12,12.50,12.85,12.05,12.20,22900,12.20
2012-11-09,12.75,13.60,12.60,12.70,70000,12.70
2012-11-08,12.90,13.45,12.55,13.05,48300,13.05
2012-11-07,12.15,13.00,12.15,12.70,75100,12.70
2012-11-06,11.50,12.00,11.45,11.85,14300,11.85
2012-11-05,11.70,12.30,11.20,11.80,48300,11.80
2012-11-02,12.30,12.45,11.70,11.85,87600,11.85
2012-11-01,12.20,12.70,12.15,12.20,23200,12.20
2012-10-31,12.00,12.90,11.85,12.45,35600,12.45
2012-10-30,12.50,12.70,12.00,12.10,16100,12.10
2012-10-29,13.00,13.00,12.25,12.45,19700,12.45
2012-10-26,13.10,13.10,13.10,13.10,000,13.10
2012-10-25,13.85,13.85,13.00,13.10,35300,13.10
2012-10-24,13.40,13.40,13.40,13.40,000,13.40
2012-10-23,14.00,14.25,13.25,13.40,38500,13.40
2012-10-22,13.20,14.15,13.15,13.90,63900,13.90
2012-10-19,14.00,14.75,13.15,13.30,172400,13.30
2012-10-18,15.90,16.30,14.40,14.40,524600,14.40
2012-10-17,15.45,16.30,14.80,15.95,717600,15.95
2012-10-16,14.50,15.45,14.35,14.85,624700,14.85
2012-10-15,13.75,14.40,13.25,14.05,97900,14.05
2012-10-12,13.60,14.05,13.25,13.45,74600,13.45
2012-10-11,13.40,13.90,13.35,13.55,54800,13.55
2012-10-10,14.00,14.00,13.30,13.75,54300,13.75
2012-10-09,13.95,14.20,13.70,14.15,96500,14.15
2012-10-08,13.30,14.40,13.20,13.90,180300,13.90
2012-10-05,14.50,14.70,12.90,13.35,128800,13.35
2012-10-04,12.75,14.05,12.75,14.05,1004500,14.05
2012-10-03,12.85,13.50,12.60,12.80,345800,12.80
2012-10-02,12.60,12.60,12.60,12.60,000,12.60
2012-10-01,12.10,12.85,11.80,12.60,77600,12.60
2012-09-28,12.40,12.45,12.05,12.25,27600,12.25
2012-09-27,12.20,12.50,12.10,12.35,31100,12.35
2012-09-26,12.00,12.30,11.85,12.20,44400,12.20
2012-09-25,12.15,12.15,11.80,11.90,39900,11.90
2012-09-24,13.00,13.00,12.05,12.20,61200,12.20
2012-09-21,13.15,13.20,12.25,12.60,163300,12.60
2012-09-20,11.00,12.20,11.00,12.20,60100,12.20
2012-09-19,11.10,11.10,11.10,11.10,000,11.10
2012-09-18,11.25,11.45,10.90,11.10,15000,11.10
2012-09-17,11.75,11.75,10.60,11.15,66400,11.15
2012-09-14,10.75,11.65,10.55,11.25,84100,11.25
2012-09-13,11.70,11.85,10.45,10.75,71100,10.75
2012-09-12,12.10,12.10,11.10,11.45,86300,11.45
2012-09-11,12.50,12.50,11.55,12.05,73600,12.05
2012-09-10,13.00,13.00,12.45,12.60,85300,12.60
2012-09-07,13.50,14.20,12.50,12.70,479000,12.70
2012-09-06,12.80,14.10,12.30,13.70,1608600,13.70
2012-09-05,9.95,12.00,9.95,12.00,621000,12.00
2012-09-04,9.30,10.25,9.30,10.00,146900,10.00
2012-09-03,8.90,9.65,8.90,9.30,22400,9.30
2012-08-31,9.35,9.65,9.00,9.05,16400,9.05
2012-08-30,8.85,9.15,8.85,9.00,7300,9.00
2012-08-29,9.05,9.35,8.80,9.10,9700,9.10
2012-08-28,8.90,9.45,8.80,9.05,27400,9.05
2012-08-27,9.65,9.85,8.75,8.90,37700,8.90
2012-08-24,10.35,10.35,9.10,9.90,128900,9.90
2012-08-23,8.20,8.85,8.05,8.65,16600,8.65
2012-08-22,8.15,8.85,8.15,8.20,10700,8.20
2012-08-21,8.10,8.35,8.10,8.15,10200,8.15
2012-08-20,8.25,8.25,8.25,8.25,000,8.25
2012-08-17,8.25,8.40,8.10,8.25,17200,8.25
2012-08-16,8.25,8.45,8.25,8.30,4300,8.30
2012-08-15,8.25,8.25,8.25,8.25,000,8.25
2012-08-14,9.70,9.70,8.20,8.25,3100,8.25
2012-08-13,8.20,8.75,8.20,8.50,1700,8.50
2012-08-10,8.20,8.30,8.15,8.20,1600,8.20
2012-08-09,8.40,8.70,8.25,8.25,3200,8.25
2012-08-08,8.25,8.65,8.25,8.35,6600,8.35
2012-08-07,8.30,8.60,8.15,8.50,11500,8.50
2012-08-06,8.45,8.50,8.30,8.35,10900,8.35
2012-08-03,8.05,8.45,8.05,8.25,1700,8.25
2012-08-02,8.75,8.75,8.25,8.30,4400,8.30
2012-08-01,8.20,8.70,8.10,8.40,16200,8.40
2012-07-31,8.60,8.85,8.40,8.55,7400,8.55
2012-07-30,8.50,8.85,8.10,8.45,6100,8.45
2012-07-27,9.50,9.50,8.60,8.70,3600,8.70
2012-07-26,9.20,10.50,8.90,9.00,7100,9.00
2012-07-25,9.10,9.25,9.10,9.20,1700,9.20
2012-07-24,9.10,10.25,9.10,9.25,11600,9.25
2012-07-23,9.15,9.45,9.05,9.35,5300,9.35
2012-07-20,9.80,9.80,9.15,9.40,10100,9.40
2012-07-19,9.40,9.65,9.40,9.55,8200,9.55
2012-07-18,9.15,9.50,9.15,9.35,7900,9.35
2012-07-17,9.40,9.75,9.30,9.45,5500,9.45
2012-07-16,9.85,9.90,9.30,9.40,38600,9.40
2012-07-13,10.20,10.55,9.90,9.90,21300,9.90
2012-07-12,10.55,10.90,10.05,10.20,66200,10.20
2012-07-11,9.45,10.85,9.35,10.60,146400,10.60
2012-07-10,9.25,9.55,9.25,9.35,8900,9.35
2012-07-09,9.15,10.10,9.15,9.50,16500,9.50
2012-07-06,9.30,10.40,9.30,9.70,68200,9.70
2012-07-05,9.10,9.50,9.10,9.35,25200,9.35
2012-07-04,8.85,9.25,8.85,9.10,10000,9.10
2012-07-03,9.00,9.00,8.75,8.90,13200,8.90
2012-07-02,8.80,9.05,8.70,8.85,15700,8.85
2012-06-29,8.30,9.00,8.20,8.60,13000,8.60
2012-06-28,8.20,8.75,8.20,8.55,15600,8.55
2012-06-27,8.00,8.45,8.00,8.20,14900,8.20
2012-06-26,8.20,8.35,8.15,8.25,5200,8.25
2012-06-25,8.50,8.50,8.00,8.25,7400,8.25
2012-06-22,8.05,8.50,8.05,8.15,4300,8.15
2012-06-21,8.25,8.25,7.85,8.10,7900,8.10
2012-06-20,8.15,8.25,8.00,8.10,5800,8.10
2012-06-19,8.05,8.45,8.05,8.20,2100,8.20
2012-06-18,8.25,8.35,8.25,8.30,8200,8.30
2012-06-15,8.00,8.40,8.00,8.25,4000,8.25
2012-06-14,8.45,8.45,8.15,8.30,3000,8.30
2012-06-13,8.35,8.65,7.25,8.35,12300,8.35
2012-06-12,8.40,8.90,8.35,8.65,5700,8.65
2012-06-11,8.55,8.80,8.55,8.65,9700,8.65
2012-06-08,8.95,9.15,8.80,8.80,16900,8.80
2012-06-07,8.85,9.75,8.50,9.00,86100,9.00
2012-06-06,7.80,8.75,7.70,8.45,45400,8.45
2012-06-05,7.60,8.00,7.60,7.95,21200,7.95
2012-06-04,7.25,8.15,7.25,7.85,17600,7.85
2012-06-01,7.55,7.95,7.50,7.70,4500,7.70
2012-05-31,7.80,8.00,7.30,7.90,21700,7.90
2012-05-30,8.70,9.30,7.70,7.75,62000,7.75
2012-05-29,7.05,8.70,7.05,8.70,38000,8.70
2012-05-28,7.45,7.60,7.20,7.25,1700,7.25
2012-05-25,7.00,7.40,7.00,7.15,6300,7.15
2012-05-24,7.25,7.25,7.00,7.10,6300,7.10
2012-05-23,7.10,7.25,7.05,7.10,2300,7.10
2012-05-22,7.90,8.20,7.20,7.25,4700,7.25
2012-05-21,7.15,7.75,7.15,7.25,3400,7.25
2012-05-18,6.80,7.25,6.50,7.10,5800,7.10
2012-05-17,7.70,7.70,6.65,7.05,8100,7.05
2012-05-16,6.90,7.50,6.90,7.40,4100,7.40
2012-05-15,7.60,7.95,7.05,7.15,19700,7.15
2012-05-14,7.55,7.65,7.50,7.55,1800,7.55
2012-05-11,7.25,8.15,7.20,7.80,22800,7.80
2012-05-10,7.75,8.05,7.05,7.85,9600,7.85
2012-05-09,7.70,8.00,7.70,7.85,6300,7.85
2012-05-08,8.20,8.35,7.95,7.95,1700,7.95
2012-05-07,8.00,8.15,7.80,8.00,3300,8.00
2012-05-04,8.20,8.30,7.85,8.00,10600,8.00
2012-05-03,8.20,8.35,8.05,8.20,7400,8.20
2012-05-02,8.20,8.85,8.20,8.30,4100,8.30
2012-05-01,8.20,8.20,8.20,8.20,000,8.20
2012-04-30,8.40,8.65,8.20,8.30,9700,8.30
2012-04-27,8.25,8.60,8.25,8.50,6200,8.50
2012-04-26,8.10,8.70,8.10,8.25,16700,8.25
2012-04-25,9.00,9.00,8.75,8.80,5500,8.80
2012-04-24,9.75,9.75,8.70,8.80,6400,8.80
2012-04-23,9.00,9.80,8.90,8.95,129800,8.95
2012-04-20,9.60,9.95,8.70,8.95,32800,8.95
2012-04-19,8.90,9.35,8.85,9.35,75500,9.35
2012-04-18,8.60,9.00,8.45,8.50,12400,8.50
2012-04-17,8.40,9.00,8.30,8.85,29300,8.85
2012-04-16,8.00,8.20,7.80,8.20,4000,8.20
2012-04-13,8.05,8.50,8.05,8.30,8400,8.30
2012-04-12,8.00,8.40,8.00,8.30,7000,8.30
2012-04-11,8.30,8.45,8.20,8.20,4700,8.20
2012-04-10,8.00,8.40,8.00,8.35,8400,8.35
2012-04-09,8.10,8.30,8.05,8.25,1800,8.25
2012-04-06,8.25,8.25,8.25,8.25,000,8.25
2012-04-05,8.25,8.25,8.25,8.25,000,8.25
2012-04-04,8.20,8.50,8.20,8.25,6600,8.25
2012-04-03,8.05,8.50,8.05,8.25,5800,8.25
2012-04-02,7.95,8.30,7.90,8.15,3700,8.15
2012-03-30,7.80,8.20,7.75,7.80,11000,7.80
2012-03-29,7.60,7.90,7.60,7.80,3200,7.80
2012-03-28,8.00,8.00,7.55,7.90,13000,7.90
2012-03-27,8.15,8.65,8.00,8.10,16400,8.10
2012-03-26,8.00,8.30,8.00,8.20,3400,8.20
2012-03-23,8.75,8.75,8.10,8.20,10000,8.20
2012-03-22,8.60,9.00,8.55,8.55,13600,8.55
2012-03-21,9.00,9.20,8.80,9.00,8600,9.00
2012-03-20,8.75,9.10,8.75,9.00,13200,9.00
2012-03-19,8.50,9.25,8.50,8.60,24900,8.60
2012-03-16,8.85,8.95,8.40,8.45,6500,8.45
2012-03-15,8.55,8.95,8.55,8.70,5800,8.70
2012-03-14,8.85,8.95,8.75,8.80,12500,8.80
2012-03-13,8.55,9.15,8.55,9.00,7900,9.00
2012-03-12,8.65,9.05,8.50,8.60,18900,8.60
2012-03-09,8.85,8.90,8.35,8.55,9800,8.55
2012-03-08,8.55,8.55,8.55,8.55,000,8.55
2012-03-07,8.75,8.85,8.50,8.55,18100,8.55
2012-03-06,9.15,9.20,8.85,8.90,9000,8.90
2012-03-05,9.45,9.45,9.10,9.10,10500,9.10
2012-03-02,9.15,9.60,9.00,9.15,7400,9.15
2012-03-01,9.05,9.25,9.00,9.20,2400,9.20
2012-02-29,9.05,9.45,8.80,9.05,4000,9.05
2012-02-28,9.25,9.25,9.00,9.10,5500,9.10
2012-02-27,9.10,9.10,8.60,8.85,7200,8.85
2012-02-24,9.25,9.25,9.05,9.05,12500,9.05
2012-02-23,9.30,9.50,9.20,9.50,3600,9.50
2012-02-22,9.85,10.10,9.50,9.65,16500,9.65
2012-02-21,9.85,10.10,9.85,9.95,12000,9.95
2012-02-20,9.80,9.80,9.80,9.80,000,9.80
2012-02-17,10.00,10.20,9.75,9.80,22300,9.80
2012-02-16,9.85,9.90,9.65,9.75,26700,9.75
2012-02-15,9.65,9.90,9.60,9.75,11500,9.75
2012-02-14,10.00,10.05,9.50,9.70,10700,9.70
2012-02-13,9.75,9.75,9.60,9.60,4600,9.60
2012-02-10,10.10,10.10,9.65,9.75,12100,9.75
2012-02-09,9.95,10.05,9.60,10.05,6900,10.05
2012-02-08,10.00,10.10,9.85,9.90,5500,9.90
2012-02-07,10.00,10.00,9.85,9.85,2900,9.85
2012-02-06,10.10,10.35,9.90,9.90,14700,9.90
2012-02-03,10.25,10.25,9.85,9.90,17900,9.90
2012-02-02,10.10,10.50,10.00,10.10,17700,10.10
2012-02-01,9.65,10.00,9.45,10.00,15300,10.00
2012-01-31,9.50,9.60,9.40,9.55,6000,9.55
2012-01-30,9.60,9.90,9.45,9.75,10400,9.75
2012-01-27,9.25,9.90,9.25,9.85,8800,9.85
2012-01-26,9.45,9.45,9.45,9.45,000,9.45
2012-01-25,9.40,9.80,9.30,9.45,13200,9.45
2012-01-24,9.70,9.80,9.40,9.50,6100,9.50
2012-01-23,9.90,10.10,9.55,9.65,6100,9.65
2012-01-20,10.15,10.15,9.80,9.85,4300,9.85
2012-01-19,10.05,10.25,9.95,10.15,18700,10.15
2012-01-18,10.20,10.85,10.05,10.15,32500,10.15
2012-01-17,10.60,10.95,10.10,10.20,79000,10.20
2012-01-16,11.80,11.95,10.20,10.55,84800,10.55
2012-01-13,9.25,11.40,9.25,11.30,228400,11.30
2012-01-12,9.80,9.80,9.35,9.50,4400,9.50
2012-01-11,9.30,10.45,9.00,9.65,49300,9.65
2012-01-10,8.50,9.40,8.50,9.30,15200,9.30
2012-01-09,8.90,9.00,8.45,8.60,7200,8.60
2012-01-06,8.50,8.65,8.45,8.60,12300,8.60
2012-01-05,7.90,8.75,7.90,8.50,20100,8.50
2012-01-04,8.10,8.60,8.10,8.50,12100,8.50
2012-01-03,8.00,8.20,7.80,8.15,9900,8.15
2012-01-02,7.25,8.00,7.25,7.90,7800,7.90
2011-12-30,7.50,7.80,7.10,7.65,7700,7.65
2011-12-29,7.55,8.00,7.50,7.55,11100,7.55
2011-12-28,7.95,8.00,7.65,7.80,7800,7.80
2011-12-27,8.40,8.40,7.40,7.70,26100,7.70
2011-12-26,8.15,8.35,8.10,8.30,8500,8.30
2011-12-23,7.80,8.25,7.80,8.00,6800,8.00
2011-12-22,8.10,8.25,7.80,8.15,12600,8.15
2011-12-21,8.00,8.20,7.85,8.05,8100,8.05
2011-12-20,8.00,8.10,7.50,8.00,18900,8.00
2011-12-19,8.00,8.30,7.85,8.00,33000,8.00
2011-12-16,7.70,8.35,7.70,7.90,14800,7.90
2011-12-15,8.10,8.45,7.75,8.00,15000,8.00
2011-12-14,9.00,9.00,7.80,8.05,94100,8.05
2011-12-13,8.80,9.10,8.45,8.95,7500,8.95
2011-12-12,9.10,9.80,8.90,8.90,11700,8.90
2011-12-09,9.00,9.80,9.00,9.50,14500,9.50
2011-12-08,9.50,9.55,9.15,9.55,25200,9.55
2011-12-07,9.60,9.75,9.30,9.50,10800,9.50
2011-12-06,9.60,9.60,9.60,9.60,000,9.60
2011-12-05,9.50,9.60,9.50,9.60,5200,9.60
2011-12-02,9.85,9.85,9.50,9.55,8600,9.55
2011-12-01,9.40,10.25,9.30,9.40,4900,9.40
2011-11-30,9.30,9.65,9.00,9.40,3500,9.40
2011-11-29,9.40,9.85,9.30,9.55,6000,9.55
2011-11-28,9.50,9.90,9.45,9.60,17700,9.60
2011-11-25,9.50,10.00,9.35,9.45,358400,9.45
2011-11-24,9.80,9.95,8.50,9.50,322400,9.50
2011-11-23,11.00,11.00,9.40,9.90,205500,9.90
2011-11-22,10.45,11.30,9.70,11.05,325400,11.05
2011-11-21,10.00,10.30,9.90,10.00,14800,10.00
2011-11-18,10.60,11.20,9.70,9.90,45700,9.90
2011-11-17,11.10,11.45,10.75,10.90,7000,10.90
2011-11-16,12.05,12.05,11.05,11.30,16400,11.30
2011-11-15,10.00,12.50,10.00,11.75,10200,11.75
2011-11-14,12.00,13.00,11.90,11.95,12900,11.95
2011-11-11,12.50,12.55,12.00,12.15,8700,12.15
2011-11-09,12.40,12.65,12.40,12.50,20300,12.50
2011-11-08,12.30,12.85,12.00,12.40,14100,12.40
2011-11-04,12.35,13.05,12.20,12.35,162600,12.35
2011-11-03,12.00,12.75,12.00,12.60,41100,12.60
2011-11-02,12.00,12.75,12.00,12.60,11800,12.60
2011-11-01,12.95,12.95,12.30,12.35,6700,12.35
2011-10-31,12.50,12.80,12.50,12.70,4000,12.70
2011-10-28,13.45,13.45,12.20,12.60,10800,12.60
2011-10-26,12.40,12.70,12.20,12.65,2500,12.65
2011-10-25,12.50,12.70,11.95,12.30,16400,12.30
2011-10-24,13.45,13.45,12.10,12.30,16900,12.30
2011-10-21,13.70,13.70,12.80,12.90,7800,12.90
2011-10-20,13.40,13.50,12.35,13.20,22100,13.20
2011-10-19,13.15,13.40,12.10,12.25,29300,12.25
2011-10-18,13.60,13.85,12.85,13.25,13600,13.25
2011-10-17,13.80,14.20,13.25,13.95,27500,13.95
2011-10-14,14.65,15.25,13.35,14.10,132400,14.10
2011-10-13,13.15,15.10,13.00,14.65,519400,14.65
2011-10-12,10.50,12.55,10.50,12.55,46400,12.55
2011-10-11,10.10,10.85,10.10,10.45,7700,10.45
2011-10-10,10.05,10.80,10.05,10.55,10800,10.55
2011-10-07,10.70,11.00,10.40,10.65,20900,10.65
2011-10-05,10.45,12.10,10.45,10.70,4400,10.70
2011-10-04,11.70,11.70,10.75,10.80,6200,10.80
2011-10-03,11.00,11.60,11.00,11.20,12100,11.20
2011-09-30,11.65,11.65,10.70,11.05,10400,11.05
2011-09-29,12.50,12.50,11.25,11.25,2100,11.25
2011-09-28,11.50,11.80,11.20,11.45,4800,11.45
2011-09-27,11.10,11.75,11.05,11.45,8300,11.45
2011-09-26,11.95,11.95,11.20,11.35,3400,11.35
2011-09-23,11.15,11.70,11.10,11.40,10100,11.40
2011-09-22,12.50,12.50,11.70,11.75,8400,11.75
2011-09-21,11.75,12.40,11.75,12.25,10100,12.25
2011-09-20,12.15,12.15,11.80,11.85,9700,11.85
2011-09-19,11.85,12.25,11.85,12.10,13600,12.10
2011-09-16,12.00,12.30,11.70,12.05,14100,12.05
2011-09-15,11.60,11.90,11.60,11.80,14900,11.80
2011-09-14,11.65,12.00,11.60,11.75,54300,11.75
2011-09-13,11.75,12.30,11.55,12.15,17300,12.15
2011-09-12,12.00,12.70,11.55,11.90,11600,11.90
2011-09-09,12.55,12.90,12.30,12.55,23800,12.55
2011-09-08,12.25,12.75,11.35,12.50,36400,12.50
2011-09-07,11.95,12.00,11.45,11.80,25600,11.80
2011-09-06,11.90,11.90,11.40,11.70,7300,11.70
2011-09-05,11.70,11.70,11.30,11.45,20300,11.45
2011-09-02,12.00,12.40,11.50,11.55,18200,11.55
2011-08-30,11.80,12.05,11.75,11.75,6600,11.75
2011-08-29,10.60,12.10,10.60,11.85,12700,11.85
2011-08-26,11.40,11.50,11.00,11.00,19000,11.00
2011-08-25,11.50,11.95,11.25,11.35,6600,11.35
2011-08-24,11.50,12.15,11.10,11.45,11700,11.45
2011-08-23,11.10,11.70,11.00,11.40,11800,11.40
2011-08-22,11.00,11.45,10.75,11.30,9400,11.30
2011-08-19,11.30,11.55,10.30,10.90,49000,10.90
2011-08-18,11.65,12.35,11.30,11.45,8800,11.45
2011-08-17,12.60,13.00,11.65,11.80,17800,11.80
2011-08-16,13.20,13.35,12.90,12.90,9600,12.90
2011-08-12,13.05,13.50,13.00,13.10,14600,13.10
2011-08-11,13.40,13.40,13.05,13.10,12900,13.10
2011-08-10,12.80,14.00,12.80,13.05,4600,13.05
2011-08-09,13.05,13.20,12.80,13.00,12600,13.00
2011-08-08,13.30,13.70,12.90,13.35,16000,13.35
2011-08-05,13.50,14.70,13.25,13.55,37300,13.55
2011-08-04,14.50,15.00,14.10,14.25,14500,14.25
2011-08-03,14.50,14.60,13.60,14.35,5800,14.35
2011-08-02,14.65,14.90,14.50,14.65,9500,14.65
2011-08-01,15.05,15.05,14.75,14.75,12200,14.75
2011-07-29,15.00,15.20,15.00,15.00,11500,15.00
2011-07-28,15.00,15.15,14.95,15.00,9500,15.00
2011-07-27,15.00,15.25,14.90,15.00,14100,15.00
2011-07-26,15.10,15.65,15.00,15.05,44100,15.05
2011-07-25,15.05,15.30,14.90,15.15,18300,15.15
2011-07-22,15.10,15.20,14.90,15.05,20200,15.05
2011-07-21,15.25,15.25,15.00,15.05,8000,15.05
2011-07-20,15.10,15.25,15.00,15.20,16000,15.20
2011-07-19,15.40,15.65,15.00,15.10,30700,15.10
2011-07-18,15.10,15.85,15.10,15.60,29200,15.60
2011-07-15,15.30,15.50,15.00,15.20,7000,15.20
2011-07-14,15.00,15.15,14.85,15.00,21000,15.00
2011-07-13,15.00,15.45,15.00,15.05,8100,15.05
2011-07-12,15.25,15.35,15.00,15.10,9600,15.10
2011-07-11,15.15,15.50,15.15,15.35,4400,15.35
2011-07-08,15.60,15.90,15.30,15.50,9700,15.50
2011-07-07,15.05,16.00,15.05,15.75,23800,15.75
2011-07-06,15.40,15.45,15.05,15.20,11700,15.20
2011-07-05,15.00,15.50,15.00,15.05,22200,15.05
2011-07-04,15.75,15.75,15.30,15.45,27300,15.45
2011-07-01,15.60,15.60,15.40,15.45,9400,15.45
2011-06-30,15.15,15.65,15.10,15.55,13100,15.55
2011-06-29,15.55,15.70,15.30,15.60,13600,15.60
2011-06-28,15.00,15.20,14.90,15.05,18000,15.05
2011-06-27,15.00,15.90,14.70,15.50,8400,15.50
2011-06-24,14.50,15.25,14.50,15.15,16100,15.15
2011-06-23,15.30,15.30,14.55,14.75,15300,14.75
2011-06-22,15.00,15.45,15.00,15.20,10600,15.20
2011-06-21,15.10,15.75,15.10,15.30,7000,15.30
2011-06-20,16.05,16.20,15.55,15.55,7200,15.55
2011-06-17,16.10,16.85,16.10,16.35,3300,16.35
2011-06-16,16.35,16.35,16.05,16.10,5200,16.10
2011-06-15,16.05,16.50,16.05,16.40,10800,16.40
2011-06-14,16.55,16.55,16.25,16.35,2900,16.35
2011-06-13,16.00,16.50,15.60,16.25,21400,16.25
2011-06-10,15.95,16.20,15.75,16.00,18700,16.00
2011-06-09,16.20,16.20,15.80,16.05,20800,16.05
2011-06-08,15.80,15.85,15.70,15.75,12400,15.75
2011-06-07,16.05,16.35,15.90,15.90,3700,15.90
2011-06-06,15.55,16.20,15.55,16.05,5900,16.05
2011-06-03,16.00,16.40,15.95,15.95,8200,15.95
2011-06-02,15.90,16.20,15.90,16.15,4000,16.15
2011-06-01,15.90,16.60,15.85,16.10,18600,16.10
2011-05-31,16.00,16.30,15.60,16.00,10300,16.00
2011-05-30,15.45,15.90,15.30,15.55,4900,15.55
2011-05-27,15.15,16.00,15.15,15.45,49400,15.45
2011-05-26,15.15,15.80,15.15,15.50,5400,15.50
2011-05-25,15.30,15.75,15.20,15.25,9100,15.25
2011-05-24,15.35,16.00,15.30,15.55,7000,15.55
2011-05-23,15.75,16.15,15.15,15.25,12700,15.25
2011-05-20,16.15,16.45,15.85,15.95,10400,15.95
2011-05-19,16.50,16.85,16.05,16.20,13600,16.20
2011-05-18,16.80,17.20,16.50,16.60,10500,16.60
2011-05-17,17.00,17.25,16.60,16.75,23700,16.75
2011-05-16,16.95,17.10,16.80,17.00,9500,17.00
2011-05-13,16.80,17.15,16.80,17.00,3900,17.00
2011-05-12,17.00,17.40,16.75,16.90,5600,16.90
2011-05-11,17.00,17.30,17.00,17.10,5400,17.10
2011-05-10,17.10,17.25,17.00,17.00,14400,17.00
2011-05-09,17.05,17.80,17.05,17.20,4000,17.20
2011-05-06,17.05,17.60,17.05,17.25,12500,17.25
2011-05-05,17.80,17.85,17.25,17.30,6600,17.30
2011-05-04,17.85,17.85,17.30,17.40,4000,17.40
2011-05-03,17.35,18.10,17.35,17.80,10400,17.80
2011-05-02,17.45,17.75,17.40,17.65,7000,17.65
2011-04-29,17.90,18.40,17.50,17.75,26000,17.75
2011-04-28,18.10,18.65,17.95,17.95,17600,17.95
2011-04-27,18.20,18.20,18.00,18.05,16200,18.05
2011-04-26,18.30,18.30,18.00,18.05,19100,18.05
2011-04-25,18.35,18.40,18.20,18.20,12600,18.20
2011-04-21,18.50,18.65,18.30,18.50,10500,18.50
2011-04-20,18.75,18.75,18.35,18.55,16700,18.55
2011-04-19,18.30,18.70,18.20,18.30,15800,18.30
2011-04-18,18.40,19.00,18.40,18.50,17300,18.50
2011-04-15,18.35,18.70,18.30,18.35,17600,18.35
2011-04-13,18.25,18.90,18.15,18.55,24100,18.55
2011-04-11,18.45,18.90,18.20,18.55,15000,18.55
2011-04-08,18.50,19.35,18.15,18.75,74400,18.75
2011-04-07,18.30,19.10,18.10,19.05,39500,19.05
2011-04-06,19.00,19.20,18.50,18.60,24700,18.60
2011-04-05,18.60,19.00,18.40,18.95,26900,18.95
2011-04-04,18.65,19.00,18.60,18.80,15800,18.80
2011-04-01,19.00,19.15,18.70,18.80,28500,18.80
2011-03-31,19.45,19.50,19.10,19.25,99700,19.25
2011-03-30,18.00,18.55,18.00,18.55,18000,18.55
2011-03-29,18.00,18.05,17.60,17.65,37100,17.65
2011-03-28,18.15,18.50,17.90,17.90,13000,17.90
2011-03-25,18.25,18.50,18.00,18.15,21000,18.15
2011-03-24,18.25,18.60,18.10,18.30,6200,18.30
2011-03-23,19.00,19.00,18.20,18.25,30200,18.25
2011-03-22,19.00,19.20,18.50,19.00,9100,19.00
2011-03-21,19.50,19.80,18.80,18.80,102400,18.80
2011-03-18,19.00,19.55,18.55,19.50,98100,19.50
2011-03-17,18.60,19.20,18.50,19.00,77300,19.00
2011-03-16,18.25,19.10,18.25,18.90,96600,18.90
2011-03-15,18.25,18.30,18.00,18.15,70200,18.15
2011-03-14,18.25,18.40,18.25,18.25,27500,18.25
2011-03-11,18.05,18.45,18.05,18.30,62800,18.30
2011-03-10,18.25,18.45,18.15,18.25,44500,18.25
2011-03-09,17.85,18.25,17.30,18.25,57600,18.25
2011-03-08,17.20,17.70,17.20,17.45,23300,17.45
2011-03-07,17.50,18.45,17.25,17.50,24800,17.50
2011-03-04,18.30,18.50,18.00,18.05,21600,18.05
2011-03-03,18.00,18.50,17.60,18.15,42600,18.15
2011-03-01,18.25,18.50,18.05,18.45,18800,18.45
2011-02-28,18.85,19.00,18.00,18.15,25500,18.15
2011-02-25,19.90,20.00,18.90,18.90,97000,18.90
2011-02-24,20.00,20.15,19.10,19.90,256800,19.90
2011-02-23,19.80,20.50,19.50,19.80,59800,19.80
2011-02-22,19.70,20.00,18.85,19.80,255800,19.80
2011-02-21,19.40,19.70,19.10,19.65,114100,19.65
2011-02-18,18.90,18.95,18.50,18.95,238100,18.95
2011-02-17,17.50,18.05,17.50,18.05,145600,18.05
2011-02-16,17.00,17.25,16.20,17.15,31000,17.15
2011-02-15,16.55,16.65,16.05,16.45,21800,16.45
2011-02-14,16.05,16.75,15.90,16.65,32200,16.65
2011-02-11,15.40,16.00,15.40,15.95,25200,15.95
2011-02-10,16.00,16.00,15.35,15.40,40900,15.40
2011-02-09,16.65,17.00,16.15,16.15,39200,16.15
2011-02-08,17.20,17.80,16.95,17.00,15500,17.00
2011-02-07,17.50,17.75,17.25,17.50,9200,17.50
2011-02-04,17.75,17.95,17.35,17.40,21700,17.40
2011-02-03,17.95,18.30,17.40,18.25,69700,18.25
2011-02-02,17.60,17.75,17.40,17.60,14800,17.60
2011-02-01,17.75,17.95,17.20,17.45,16800,17.45
2011-01-31,17.65,17.65,17.20,17.45,17200,17.45
2011-01-28,18.00,18.05,17.50,17.80,24200,17.80
2011-01-27,18.00,18.45,17.85,17.90,39000,17.90
2011-01-25,18.10,18.50,17.70,18.15,17700,18.15
2011-01-24,18.50,18.85,17.90,18.00,74400,18.00
2011-01-21,18.05,19.30,18.05,18.80,33400,18.80
2011-01-20,18.55,19.00,18.55,18.90,23600,18.90
2011-01-19,18.50,18.95,18.35,18.85,14700,18.85
2011-01-18,18.65,18.90,18.25,18.55,55900,18.55
2011-01-17,18.70,18.90,18.40,18.65,17900,18.65
2011-01-14,18.60,19.10,18.40,18.65,31100,18.65
2011-01-13,18.70,19.00,18.50,18.80,15400,18.80
2011-01-12,18.40,19.00,18.40,19.00,22400,19.00
2011-01-11,18.55,19.50,18.50,18.80,36600,18.80
2011-01-10,19.35,19.70,18.65,18.90,47700,18.90
2011-01-07,19.50,19.70,19.20,19.25,44200,19.25
2011-01-06,20.15,20.20,19.10,19.85,73700,19.85
2011-01-05,20.10,20.40,19.80,20.10,67800,20.10
2011-01-04,20.00,20.40,19.80,20.30,54000,20.30
2011-01-03,20.00,20.50,19.60,20.05,41500,20.05
